 PENELOPE (v. 2012)  Material data file ...............
 Material: SiO2                                                          
 Mass density = 2.65000000E+00 g/cm**3
 Number of elements in the molecule =  2
   atomic number = 14,  atoms/molecule = 4.99968716E-01
   atomic number =  8,  atoms/molecule = 1.00000000E+00
 Mean excitation energy = 1.25661831E+02 eV
 Number of oscillators =  7 (E/P inelastic model)
   1  9.99937432E-01  0.00000000E+00  8.55823147E+00   0  30
   2  6.99993743E+00  1.78428963E+01  3.89800151E+01   0  30
   3  9.99937432E-01  1.04000000E+02  2.33146297E+02  14   3
   4  1.99987486E+00  1.04000000E+02  2.33250991E+02  14   4
   5  9.99937432E-01  1.54000000E+02  3.45151509E+02  14   2
   6  2.00000000E+00  5.38000000E+02  1.20558240E+03   8   1
   7  9.99937432E-01  1.84400000E+03  4.13201197E+03  14   1
 Number of shells =  7 (Compton IA model)
   1  9.99937432E-01  0.00000000E+00  1.55353952E+00   0  30
   2  6.99993743E+00  1.78428963E+01  5.12704765E-01   0  30
   3  1.99987486E+00  1.04000000E+02  1.49030000E-01  14   4
   4  9.99937432E-01  1.04000000E+02  1.48493000E-01  14   3
   5  9.99937432E-01  1.54000000E+02  2.74105000E-01  14   2
   6  2.00000000E+00  5.38000000E+02  1.13183000E-01   8   1
   7  9.99937432E-01  1.84400000E+03  6.32596000E-02  14   1
 *** RELAX:  Z = 14,  no. of shells =  6,  no. of transitions =  51
   1 1s1/2 2  1.84400E+03  6.32596E-02
   2 2s1/2 2  1.54000E+02  2.74105E-01
   3 2p1/2 2  1.04000E+02  1.48493E-01
   4 2p3/2 4  1.04000E+02  1.49030E-01
   5 3s1/2 2  1.34600E+01  1.03443E+00
   6 3p1/2 2  8.15100E+00  7.43235E-01
   1  3  0  1.59791E-02  1.73939E+03
   1  4  0  3.17052E-02  1.73998E+03
   1  6  0  2.72402E-04  1.83596E+03
   1  7  0  5.40444E-04  1.83596E+03
   1  2  2  7.47954E-02  1.52540E+03
   1  2  3  8.01214E-02  1.56828E+03
   1  2  4  1.56131E-01  1.56897E+03
   1  2  5  1.41124E-02  1.66332E+03
   1  2  6  1.95584E-03  1.67040E+03
   1  2  7  3.81585E-03  1.67043E+03
   1  3  3  1.39905E-02  1.61116E+03
   1  3  4  3.56408E-01  1.61185E+03
   1  3  5  6.76231E-03  1.70620E+03
   1  3  6  6.64732E-04  1.71328E+03
   1  3  7  7.97675E-03  1.71331E+03
   1  4  4  2.03104E-01  1.61254E+03
   1  4  5  1.31982E-02  1.70689E+03
   1  4  6  7.96407E-03  1.71397E+03
   1  4  7  9.16547E-03  1.71400E+03
   1  5  5  6.64748E-04  1.80124E+03
   1  5  6  1.66185E-04  1.80832E+03
   1  5  7  3.25975E-04  1.80835E+03
   1  6  6  6.39199E-06  1.81540E+03
   1  6  7  1.08669E-04  1.81543E+03
   1  7  7  6.39185E-05  1.81546E+03
   2  6  0  5.83271E-06  1.55240E+02
   2  7  0  1.07340E-05  1.45030E+02
   2  5  5  1.03158E-02  1.24290E+02
   2  5  6  5.00684E-03  1.31370E+02
   2  5  7  9.95440E-03  1.31400E+02
   2  6  6  3.23120E-05  1.38450E+02
   2  7  7  6.62381E-05  1.38510E+02
   3  5  0  4.72000E-05  9.50400E+01
   3  7  0  1.82830E-09  1.02150E+02
   3  5  5  6.76285E-02  8.14100E+01
   3  5  6  5.54847E-01  8.84900E+01
   3  5  7  3.51351E-02  8.85200E+01
   3  6  6  7.24466E-02  9.55700E+01
   3  6  7  2.62434E-01  9.56000E+01
   3  7  7  7.46220E-03  9.56300E+01
   4  5  0  4.42068E-05  9.43500E+01
   4  6  0  8.54246E-10  1.00630E+02
   4  7  0  8.43116E-10  1.01460E+02
   4  5  5  6.56816E-02  8.07200E+01
   4  5  6  1.73500E-02  8.78000E+01
   4  5  7  5.73636E-01  8.78300E+01
   4  6  6  1.08438E-03  9.48800E+01
   4  6  7  1.37565E-01  9.49100E+01
   4  7  7  2.04639E-01  9.49400E+01
   2 30  0  3.26940E-04  4.33570E+01
   2 30 30  9.74281E-01  3.11037E+01
 *** RELAX:  Z =  8,  no. of shells =  4,  no. of transitions =   8
   1 1s1/2 2  5.38000E+02  1.13183E-01
   2 2s1/2 2  2.84800E+01  5.77977E-01
   3 2p1/2 2  1.36200E+01  3.49407E-01
   4 2p3/2 2  1.36200E+01  3.49884E-01
   1  3  0  1.90768E-03  5.23090E+02
   1  4  0  3.80027E-03  5.23130E+02
   1  2  2  1.78644E-01  4.78820E+02
   1  2  3  1.16224E-01  4.93860E+02
   1  2  4  2.30418E-01  4.93900E+02
   1  3  3  1.10822E-02  5.08900E+02
   1  3  4  2.91115E-01  5.08940E+02
   1  4  4  1.66809E-01  5.08980E+02
 *** Electron scaled bremss x-section,  ZEQ = 1.03922E+01,  NDATA =  57
 1.00E+03 5.97182E+00 6.03011E+00 6.08559E+00 6.13612E+00 6.18221E+00
          6.26366E+00 6.33011E+00 6.38236E+00 6.42164E+00 6.45055E+00
          6.47266E+00 6.48918E+00 6.50122E+00 6.50986E+00 6.51701E+00
          6.52418E+00 6.53104E+00 6.53651E+00 6.53994E+00 6.54337E+00
          6.54850E+00 6.55098E+00 6.55248E+00 6.55242E+00 6.55101E+00
          6.55035E+00 6.54978E+00 6.54970E+00 6.54963E+00 6.54963E+00
          6.54963E+00 6.54964E+00                                     5.556E+00
 1.50E+03 7.00179E+00 7.06238E+00 7.11912E+00 7.16906E+00 7.21289E+00
          7.28582E+00 7.33772E+00 7.36938E+00 7.38299E+00 7.38286E+00
          7.37466E+00 7.35997E+00 7.33979E+00 7.31543E+00 7.28974E+00
          7.26505E+00 7.24073E+00 7.21475E+00 7.18579E+00 7.15651E+00
          7.13041E+00 7.11860E+00 7.10633E+00 7.09600E+00 7.08598E+00
          7.08346E+00 7.08130E+00 7.08103E+00 7.08080E+00 7.08079E+00
          7.08077E+00 7.08074E+00                                     6.270E+00
 2.00E+03 7.75830E+00 7.82629E+00 7.88788E+00 7.93822E+00 7.97861E+00
          8.03680E+00 8.06639E+00 8.07266E+00 8.05929E+00 8.03164E+00
          7.99651E+00 7.95516E+00 7.90760E+00 7.85507E+00 7.80164E+00
          7.75081E+00 7.70196E+00 7.65268E+00 7.60147E+00 7.55190E+00
          7.50658E+00 7.48452E+00 7.46294E+00 7.44632E+00 7.42952E+00
          7.42534E+00 7.42204E+00 7.42162E+00 7.42127E+00 7.42125E+00
          7.42121E+00 7.42119E+00                                     6.764E+00
 3.00E+03 8.84675E+00 8.92743E+00 8.99636E+00 9.04465E+00 9.07504E+00
          9.09789E+00 9.07928E+00 9.03549E+00 8.97209E+00 8.89434E+00
          8.80888E+00 8.71813E+00 8.62405E+00 8.52908E+00 8.43489E+00
          8.34349E+00 8.25555E+00 8.17150E+00 8.09167E+00 8.01568E+00
          7.94369E+00 7.90969E+00 7.87668E+00 7.85119E+00 7.82508E+00
          7.81865E+00 7.81359E+00 7.81294E+00 7.81245E+00 7.81238E+00
          7.81236E+00 7.81232E+00                                     7.412E+00
 4.00E+03 9.62880E+00 9.71324E+00 9.78229E+00 9.82440E+00 9.84326E+00
          9.83261E+00 9.77058E+00 9.67960E+00 9.56785E+00 9.44294E+00
          9.31404E+00 9.18355E+00 9.05239E+00 8.92261E+00 8.79606E+00
          8.67517E+00 8.56068E+00 8.45264E+00 8.35095E+00 8.25490E+00
          8.16534E+00 8.12412E+00 8.08398E+00 8.05257E+00 8.02024E+00
          8.01244E+00 8.00620E+00 8.00537E+00 8.00478E+00 8.00470E+00
          8.00463E+00 8.00464E+00                                     7.820E+00
 5.00E+03 1.02473E+01 1.03180E+01 1.03737E+01 1.04034E+01 1.04106E+01
          1.03769E+01 1.02866E+01 1.01570E+01 9.99915E+00 9.82656E+00
          9.65491E+00 9.48744E+00 9.32370E+00 9.16516E+00 9.01408E+00
          8.87304E+00 8.74124E+00 8.61521E+00 8.49276E+00 8.37836E+00
          8.27681E+00 8.23044E+00 8.18484E+00 8.14886E+00 8.11243E+00
          8.10348E+00 8.09642E+00 8.09553E+00 8.09482E+00 8.09474E+00
          8.09466E+00 8.09467E+00                                     8.099E+00
 6.00E+03 1.07436E+01 1.08092E+01 1.08577E+01 1.08765E+01 1.08698E+01
          1.08032E+01 1.06750E+01 1.05059E+01 1.03087E+01 1.00990E+01
          9.89396E+00 9.69691E+00 9.50688E+00 9.32473E+00 9.15249E+00
          8.99233E+00 8.84325E+00 8.70112E+00 8.56341E+00 8.43542E+00
          8.32277E+00 8.27176E+00 8.22181E+00 8.18255E+00 8.14295E+00
          8.13323E+00 8.12556E+00 8.12459E+00 8.12381E+00 8.12371E+00
          8.12364E+00 8.12365E+00                                     8.298E+00
 8.00E+03 1.15039E+01 1.15741E+01 1.16185E+01 1.16181E+01 1.15802E+01
          1.14322E+01 1.12142E+01 1.09675E+01 1.07067E+01 1.04434E+01
          1.01906E+01 9.95003E+00 9.71973E+00 9.49957E+00 9.29125E+00
          9.09645E+00 8.91526E+00 8.74579E+00 8.58665E+00 8.43910E+00
          8.30645E+00 8.24700E+00 8.19011E+00 8.14656E+00 8.10232E+00
          8.09164E+00 8.08318E+00 8.08206E+00 8.08123E+00 8.08113E+00
          8.08105E+00 8.08105E+00                                     8.552E+00
 1.00E+04 1.20948E+01 1.21498E+01 1.21755E+01 1.21501E+01 1.20827E+01
          1.18700E+01 1.15849E+01 1.12762E+01 1.09594E+01 1.06468E+01
          1.03510E+01 1.00727E+01 9.80932E+00 9.55931E+00 9.32438E+00
          9.10532E+00 8.90188E+00 8.71134E+00 8.53193E+00 8.36611E+00
          8.21803E+00 8.15165E+00 8.08880E+00 8.04157E+00 7.99444E+00
          7.98310E+00 7.97412E+00 7.97295E+00 7.97210E+00 7.97197E+00
          7.97188E+00 7.97187E+00                                     8.699E+00
 1.50E+04 1.31393E+01 1.31502E+01 1.31253E+01 1.30384E+01 1.29024E+01
          1.25470E+01 1.21224E+01 1.16901E+01 1.12668E+01 1.08626E+01
          1.04884E+01 1.01412E+01 9.81770E+00 9.51282E+00 9.22899E+00
          8.96517E+00 8.72018E+00 8.48959E+00 8.27090E+00 8.06919E+00
          7.88925E+00 7.80730E+00 7.73086E+00 7.67572E+00 7.62404E+00
          7.61176E+00 7.60209E+00 7.60086E+00 7.59994E+00 7.59980E+00
          7.59972E+00 7.59969E+00                                     8.851E+00
 2.00E+04 1.42421E+01 1.40005E+01 1.37537E+01 1.34991E+01 1.32435E+01
          1.27508E+01 1.22744E+01 1.18141E+01 1.13695E+01 1.09405E+01
          1.05274E+01 1.01302E+01 9.75296E+00 9.39459E+00 9.05807E+00
          8.74198E+00 8.44814E+00 8.17883E+00 7.93550E+00 7.71453E+00
          7.51954E+00 7.44059E+00 7.38184E+00 7.34307E+00 7.23718E+00
          7.19004E+00 7.20322E+00 7.21154E+00 7.20767E+00 7.20503E+00
          7.20973E+00 7.20672E+00                                     8.867E+00
 3.00E+04 1.50154E+01 1.47738E+01 1.45101E+01 1.42095E+01 1.38866E+01
          1.32310E+01 1.25803E+01 1.19656E+01 1.13909E+01 1.08552E+01
          1.03542E+01 9.88707E+00 9.44936E+00 9.03526E+00 8.65027E+00
          8.29397E+00 7.96499E+00 7.66129E+00 7.38146E+00 7.12462E+00
          6.88886E+00 6.78109E+00 6.68892E+00 6.62546E+00 6.52510E+00
          6.48786E+00 6.49747E+00 6.50341E+00 6.49963E+00 6.49749E+00
          6.50079E+00 6.49874E+00                                     8.811E+00
 4.00E+04 1.54297E+01 1.52326E+01 1.49902E+01 1.46712E+01 1.42993E+01
          1.35027E+01 1.26930E+01 1.19482E+01 1.12752E+01 1.06684E+01
          1.01183E+01 9.61793E+00 9.15569E+00 8.71869E+00 8.31280E+00
          7.93836E+00 7.58908E+00 7.25645E+00 6.93549E+00 6.63403E+00
          6.35336E+00 6.21761E+00 6.09270E+00 6.00858E+00 5.94310E+00
          5.92841E+00 5.91724E+00 5.91591E+00 5.91487E+00 5.91469E+00
          5.91463E+00 5.91464E+00                                     8.720E+00
 5.00E+04 1.59855E+01 1.56434E+01 1.52736E+01 1.48580E+01 1.44167E+01
          1.35355E+01 1.26805E+01 1.18954E+01 1.11812E+01 1.05314E+01
          9.93884E+00 9.39821E+00 8.90231E+00 8.43805E+00 8.00705E+00
          7.60944E+00 7.23800E+00 6.88662E+00 6.54958E+00 6.22416E+00
          5.90964E+00 5.75999E+00 5.62489E+00 5.53452E+00 5.46115E+00
          5.44805E+00 5.43515E+00 5.43329E+00 5.43240E+00 5.43222E+00
          5.43229E+00 5.43218E+00                                     8.622E+00
 6.00E+04 1.64788E+01 1.59669E+01 1.54525E+01 1.49365E+01 1.44323E+01
          1.34945E+01 1.26290E+01 1.18299E+01 1.10920E+01 1.04094E+01
          9.77978E+00 9.20298E+00 8.67700E+00 8.19080E+00 7.73982E+00
          7.32264E+00 6.93286E+00 6.56879E+00 6.22524E+00 5.88574E+00
          5.54013E+00 5.37394E+00 5.22944E+00 5.13775E+00 5.05838E+00
          5.04419E+00 5.03022E+00 5.02835E+00 5.02736E+00 5.02712E+00
          5.02733E+00 5.02709E+00                                     8.532E+00
 8.00E+04 1.69471E+01 1.63467E+01 1.57469E+01 1.51511E+01 1.45738E+01
          1.35112E+01 1.25428E+01 1.16599E+01 1.08548E+01 1.01178E+01
          9.44551E+00 8.83917E+00 8.28966E+00 7.78383E+00 7.31263E+00
          6.87430E+00 6.46185E+00 6.07145E+00 5.69767E+00 5.32537E+00
          4.94682E+00 4.76524E+00 4.60807E+00 4.50806E+00 4.41745E+00
          4.39938E+00 4.38407E+00 4.38220E+00 4.38096E+00 4.38072E+00
          4.38073E+00 4.38057E+00                                     8.390E+00
 1.00E+05 1.72578E+01 1.65846E+01 1.59157E+01 1.52575E+01 1.46247E+01
          1.34687E+01 1.24266E+01 1.14851E+01 1.06336E+01 9.86215E+00
          9.16434E+00 8.54071E+00 7.97769E+00 7.45946E+00 6.97338E+00
          6.51622E+00 6.08412E+00 5.67252E+00 5.27776E+00 4.88699E+00
          4.49370E+00 4.30432E+00 4.13562E+00 4.02356E+00 3.92378E+00
          3.90174E+00 3.88505E+00 3.88321E+00 3.88161E+00 3.88136E+00
          3.88124E+00 3.88113E+00                                     8.277E+00
 1.50E+05 1.77551E+01 1.69588E+01 1.61684E+01 1.53918E+01 1.46453E+01
          1.32857E+01 1.20888E+01 1.10510E+01 1.01439E+01 9.34371E+00
          8.63014E+00 7.98837E+00 7.40093E+00 6.85165E+00 6.33267E+00
          5.84316E+00 5.38574E+00 4.95116E+00 4.53414E+00 4.12531E+00
          3.71674E+00 3.51482E+00 3.32340E+00 3.18497E+00 3.06574E+00
          3.03881E+00 3.01775E+00 3.01521E+00 3.01319E+00 3.01291E+00
          3.01272E+00 3.01265E+00                                     8.087E+00
 2.00E+05 1.82103E+01 1.72098E+01 1.62467E+01 1.53510E+01 1.45268E+01
          1.30722E+01 1.18252E+01 1.07468E+01 9.80361E+00 8.97032E+00
          8.23160E+00 7.57032E+00 6.96946E+00 6.41317E+00 5.88651E+00
          5.38346E+00 4.91108E+00 4.46873E+00 4.04900E+00 3.63686E+00
          3.22009E+00 3.01121E+00 2.80658E+00 2.65235E+00 2.52060E+00
          2.49006E+00 2.46543E+00 2.46255E+00 2.46017E+00 2.45981E+00
          2.45963E+00 2.45959E+00                                     7.984E+00
 3.00E+05 1.88312E+01 1.75998E+01 1.64381E+01 1.53995E+01 1.44712E+01
          1.28547E+01 1.14965E+01 1.03454E+01 9.36573E+00 8.51293E+00
          7.75519E+00 7.07474E+00 6.45432E+00 5.87959E+00 5.33728E+00
          4.82101E+00 4.33566E+00 3.88827E+00 3.46806E+00 3.05536E+00
          2.63613E+00 2.42403E+00 2.21304E+00 2.04897E+00 1.89922E+00
          1.86309E+00 1.83408E+00 1.83065E+00 1.82776E+00 1.82737E+00
          1.82712E+00 1.82709E+00                                     7.976E+00
 4.00E+05 1.93591E+01 1.79414E+01 1.66288E+01 1.54983E+01 1.45143E+01
          1.28115E+01 1.13986E+01 1.01994E+01 9.18324E+00 8.30532E+00
          7.52657E+00 6.82588E+00 6.18537E+00 5.59192E+00 5.03786E+00
          4.51831E+00 4.03204E+00 3.57909E+00 3.15371E+00 2.73774E+00
          2.32045E+00 2.10923E+00 1.89768E+00 1.72958E+00 1.56662E+00
          1.52690E+00 1.49513E+00 1.49085E+00 1.48779E+00 1.48746E+00
          1.48707E+00 1.48704E+00                                     8.115E+00
 5.00E+05 1.98585E+01 1.82926E+01 1.68613E+01 1.56615E+01 1.46360E+01
          1.28594E+01 1.14023E+01 1.01707E+01 9.12846E+00 8.22919E+00
          7.42939E+00 6.70792E+00 6.05140E+00 5.44791E+00 4.88610E+00
          4.35852E+00 3.86353E+00 3.40120E+00 2.97102E+00 2.55514E+00
          2.13744E+00 1.92454E+00 1.71003E+00 1.53742E+00 1.36486E+00
          1.32166E+00 1.28734E+00 1.28286E+00 1.27956E+00 1.27913E+00
          1.27881E+00 1.27866E+00                                     8.328E+00
 6.00E+05 2.03089E+01 1.86243E+01 1.71001E+01 1.58494E+01 1.47950E+01
          1.29600E+01 1.14662E+01 1.02100E+01 9.14567E+00 8.22612E+00
          7.40798E+00 6.66998E+00 5.99956E+00 5.38520E+00 4.81457E+00
          4.27916E+00 3.77651E+00 3.30547E+00 2.86642E+00 2.44774E+00
          2.02778E+00 1.81289E+00 1.59418E+00 1.41562E+00 1.23399E+00
          1.18800E+00 1.15134E+00 1.14656E+00 1.14304E+00 1.14258E+00
          1.14224E+00 1.14205E+00                                     8.577E+00
 8.00E+05 2.10572E+01 1.92276E+01 1.75886E+01 1.62720E+01 1.51732E+01
          1.32304E+01 1.16590E+01 1.03643E+01 9.27520E+00 8.33385E+00
          7.49258E+00 6.73143E+00 6.03975E+00 5.40646E+00 4.81794E+00
          4.26478E+00 3.74427E+00 3.25473E+00 2.79541E+00 2.36267E+00
          1.93181E+00 1.70975E+00 1.48005E+00 1.28822E+00 1.08771E+00
          1.03605E+00 9.94595E-01 9.89349E-01 9.85222E-01 9.84697E-01
          9.84256E-01 9.84100E-01                                     9.119E+00
 1.00E+06 2.16704E+01 1.97253E+01 1.79979E+01 1.66371E+01 1.55153E+01
          1.35170E+01 1.19085E+01 1.05892E+01 9.47960E+00 8.51817E+00
          7.65840E+00 6.88036E+00 6.17214E+00 5.52214E+00 4.91792E+00
          4.35034E+00 3.81506E+00 3.30783E+00 2.82592E+00 2.36915E+00
          1.92155E+00 1.68966E+00 1.44666E+00 1.24003E+00 1.01888E+00
          9.61124E-01 9.14647E-01 9.08726E-01 9.04098E-01 9.03502E-01
          9.03019E-01 9.02889E-01                                     9.665E+00
 1.50E+06 2.27877E+01 2.06660E+01 1.88073E+01 1.73890E+01 1.62449E+01
          1.41863E+01 1.25542E+01 1.11993E+01 1.00523E+01 9.05393E+00
          8.16146E+00 7.35411E+00 6.61749E+00 5.93836E+00 5.30394E+00
          4.70443E+00 4.13433E+00 3.58728E+00 3.05748E+00 2.54062E+00
          2.03311E+00 1.77007E+00 1.48639E+00 1.23749E+00 9.63050E-01
          8.89918E-01 8.31096E-01 8.23682E-01 8.17797E-01 8.17078E-01
          8.16494E-01 8.16392E-01                                     1.092E+01
 2.00E+06 2.35073E+01 2.13181E+01 1.94133E+01 1.79828E+01 1.68394E+01
          1.47592E+01 1.31167E+01 1.17450E+01 1.05824E+01 9.56806E+00
          8.65805E+00 7.83174E+00 7.07577E+00 6.37679E+00 5.72038E+00
          5.09562E+00 4.49708E+00 3.91828E+00 3.35148E+00 2.78633E+00
          2.21224E+00 1.91341E+00 1.58351E+00 1.28839E+00 9.60952E-01
          8.73541E-01 8.02760E-01 7.93939E-01 7.86770E-01 7.85893E-01
          7.85056E-01 7.84919E-01                                     1.198E+01
 3.00E+06 2.44162E+01 2.21280E+01 2.01660E+01 1.87471E+01 1.76512E+01
          1.56477E+01 1.40381E+01 1.26699E+01 1.14918E+01 1.04523E+01
          9.51366E+00 8.65755E+00 7.87178E+00 7.14404E+00 6.46089E+00
          5.81072E+00 5.18470E+00 4.57078E+00 3.95312E+00 3.30805E+00
          2.60715E+00 2.22496E+00 1.80628E+00 1.42680E+00 9.98019E-01
          8.79179E-01 7.83687E-01 7.72165E-01 7.63077E-01 7.61812E-01
          7.60799E-01 7.59147E-01                                     1.367E+01
 4.00E+06 2.47382E+01 2.24944E+01 2.05952E+01 1.92678E+01 1.82687E+01
          1.63887E+01 1.48060E+01 1.34174E+01 1.21947E+01 1.11098E+01
          1.01432E+01 9.27646E+00 8.49183E+00 7.77036E+00 7.08997E+00
          6.43327E+00 5.79130E+00 5.15194E+00 4.49509E+00 3.78401E+00
          2.97609E+00 2.52230E+00 2.02656E+00 1.58051E+00 1.05140E+00
          8.95720E-01 7.77701E-01 7.64038E-01 7.52088E-01 7.50234E-01
          7.49159E-01 7.45976E-01                                     1.495E+01
 5.00E+06 2.51014E+01 2.28049E+01 2.08860E+01 1.95920E+01 1.86493E+01
          1.68467E+01 1.53071E+01 1.39461E+01 1.27396E+01 1.16623E+01
          1.06969E+01 9.82663E+00 9.03541E+00 8.30557E+00 7.61618E+00
          6.94998E+00 6.29678E+00 5.64202E+00 4.96100E+00 4.20706E+00
          3.32265E+00 2.81072E+00 2.23628E+00 1.72210E+00 1.10574E+00
          9.22027E-01 7.77105E-01 7.59329E-01 7.44666E-01 7.42648E-01
          7.40961E-01 7.36806E-01                                     1.595E+01
 6.00E+06 2.53241E+01 2.29879E+01 2.10596E+01 1.98042E+01 1.89174E+01
          1.71794E+01 1.56827E+01 1.43508E+01 1.31642E+01 1.20994E+01
          1.11409E+01 1.02734E+01 9.48196E+00 8.75000E+00 8.05746E+00
          7.38726E+00 6.72823E+00 6.06407E+00 5.36629E+00 4.58031E+00
          3.63552E+00 3.07588E+00 2.43540E+00 1.85638E+00 1.16019E+00
          9.49935E-01 7.77994E-01 7.55846E-01 7.38201E-01 7.36029E-01
          7.33847E-01 7.29205E-01                                     1.674E+01
 8.00E+06 2.56182E+01 2.32242E+01 2.12878E+01 2.01029E+01 1.93111E+01
          1.76723E+01 1.62487E+01 1.49699E+01 1.38220E+01 1.27847E+01
          1.18451E+01 1.09899E+01 1.02058E+01 9.47772E+00 8.78681E+00
          8.11616E+00 7.45340E+00 6.77958E+00 6.06072E+00 5.22994E+00
          4.19459E+00 3.55992E+00 2.81049E+00 2.11221E+00 1.27027E+00
          1.01002E+00 7.84976E-01 7.53830E-01 7.29503E-01 7.26919E-01
          7.24216E-01 7.19109E-01                                     1.800E+01
 1.00E+07 2.57778E+01 2.33511E+01 2.14164E+01 2.02876E+01 1.95675E+01
          1.80062E+01 1.66422E+01 1.54099E+01 1.42981E+01 1.32889E+01
          1.23711E+01 1.15327E+01 1.07617E+01 1.00439E+01 9.36112E+00
          8.69655E+00 8.03706E+00 7.36204E+00 6.63366E+00 5.77606E+00
          4.67882E+00 3.98888E+00 3.15458E+00 2.35233E+00 1.37750E+00
          1.07090E+00 7.95063E-01 7.54954E-01 7.23340E-01 7.20214E-01
          7.17201E-01 7.11937E-01                                     1.894E+01
 1.50E+07 2.59433E+01 2.34905E+01 2.15733E+01 2.05315E+01 1.99203E+01
          1.84973E+01 1.72406E+01 1.60971E+01 1.50588E+01 1.41115E+01
          1.32462E+01 1.24530E+01 1.17213E+01 1.10381E+01 1.03860E+01
          9.74802E+00 9.11037E+00 8.45008E+00 7.72389E+00 6.84189E+00
          5.66130E+00 4.88477E+00 3.90387E+00 2.90812E+00 1.63039E+00
          1.21986E+00 8.26422E-01 7.64831E-01 7.13851E-01 7.08875E-01
          7.05829E-01 7.01228E-01                                     2.056E+01
 2.00E+07 2.59985E+01 2.35370E+01 2.16340E+01 2.06428E+01 2.00949E+01
          1.87610E+01 1.75752E+01 1.64937E+01 1.55096E+01 1.46109E+01
          1.37897E+01 1.30371E+01 1.23432E+01 1.16955E+01 1.10765E+01
          1.04692E+01 9.85954E+00 9.22385E+00 8.51621E+00 7.63918E+00
          6.42846E+00 5.60635E+00 4.53451E+00 3.40065E+00 1.86311E+00
          1.36115E+00 8.60982E-01 7.79539E-01 7.09250E-01 7.02036E-01
          6.99182E-01 6.95295E-01                                     2.161E+01
 3.00E+07 2.60312E+01 2.35543E+01 2.16646E+01 2.07324E+01 2.02598E+01
          1.90320E+01 1.79341E+01 1.69325E+01 1.60218E+01 1.51921E+01
          1.44365E+01 1.37472E+01 1.31152E+01 1.25282E+01 1.19685E+01
          1.14185E+01 1.08648E+01 1.02836E+01 9.62728E+00 8.79131E+00
          7.58519E+00 6.72748E+00 5.55637E+00 4.24004E+00 2.28014E+00
          1.62159E+00 9.31238E-01 8.14106E-01 7.07300E-01 6.95150E-01
          6.91592E-01 6.88755E-01                                     2.296E+01
 4.00E+07 2.60105E+01 2.35362E+01 2.16631E+01 2.07694E+01 2.03422E+01
          1.91790E+01 1.81343E+01 1.71807E+01 1.63134E+01 1.55240E+01
          1.48070E+01 1.41558E+01 1.35636E+01 1.30208E+01 1.25127E+01
          1.20233E+01 1.15346E+01 1.10127E+01 1.04027E+01 9.60632E+00
          8.43015E+00 7.57130E+00 6.36329E+00 4.94047E+00 2.66207E+00
          1.86039E+00 9.98900E-01 8.48899E-01 7.10027E-01 6.94506E-01
          6.87728E-01 6.85321E-01                                     2.382E+01
 5.00E+07 2.59819E+01 2.35205E+01 2.16651E+01 2.07966E+01 2.03960E+01
          1.92718E+01 1.82596E+01 1.73362E+01 1.64974E+01 1.57363E+01
          1.50486E+01 1.44283E+01 1.38693E+01 1.33624E+01 1.28936E+01
          1.24471E+01 1.20061E+01 1.15373E+01 1.09841E+01 1.02392E+01
          9.09593E+00 8.24177E+00 7.02097E+00 5.53899E+00 3.02157E+00
          2.07639E+00 1.06479E+00 8.85769E-01 7.15296E-01 6.94865E-01
          6.85190E-01 6.83227E-01                                     2.443E+01
 6.00E+07 2.59297E+01 2.34903E+01 2.16560E+01 2.08070E+01 2.04237E+01
          1.93283E+01 1.83405E+01 1.74402E+01 1.66239E+01 1.58854E+01
          1.52210E+01 1.46257E+01 1.40932E+01 1.36149E+01 1.31770E+01
          1.27641E+01 1.23605E+01 1.19343E+01 1.14290E+01 1.07333E+01
          9.63320E+00 8.79412E+00 7.57489E+00 6.05633E+00 3.35351E+00
          2.28098E+00 1.12761E+00 9.21819E-01 7.21717E-01 6.96121E-01
          6.83667E-01 6.81679E-01                                     2.489E+01
 8.00E+07 2.58334E+01 2.34419E+01 2.16477E+01 2.08258E+01 2.04624E+01
          1.94045E+01 1.84486E+01 1.75793E+01 1.67931E+01 1.60856E+01
          1.54535E+01 1.48926E+01 1.43976E+01 1.39605E+01 1.35683E+01
          1.32068E+01 1.28622E+01 1.25052E+01 1.20808E+01 1.14745E+01
          1.04643E+01 9.66467E+00 8.46743E+00 6.91438E+00 3.94739E+00
          2.66765E+00 1.24658E+00 9.91312E-01 7.36487E-01 7.01012E-01
          6.81949E-01 6.79641E-01                                     2.555E+01
 1.00E+08 2.57762E+01 2.34241E+01 2.16612E+01 2.08571E+01 2.05044E+01
          1.94692E+01 1.85328E+01 1.76825E+01 1.69152E+01 1.62267E+01
          1.56149E+01 1.50757E+01 1.46048E+01 1.41948E+01 1.38339E+01
          1.35092E+01 1.32084E+01 1.29044E+01 1.25443E+01 1.20142E+01
          1.10896E+01 1.03326E+01 9.16784E+00 7.60778E+00 4.46846E+00
          3.02932E+00 1.35904E+00 1.05813E+00 7.52860E-01 7.08015E-01
          6.81451E-01 6.78724E-01                                     2.603E+01
 1.50E+08 2.56333E+01 2.33694E+01 2.16734E+01 2.09017E+01 2.05635E+01
          1.95632E+01 1.86556E+01 1.78319E+01 1.70896E+01 1.64262E+01
          1.58406E+01 1.53307E+01 1.48933E+01 1.45237E+01 1.42134E+01
          1.39522E+01 1.37282E+01 1.35122E+01 1.32544E+01 1.28624E+01
          1.21309E+01 1.14833E+01 1.04101E+01 8.88368E+00 5.54105E+00
          3.81911E+00 1.61452E+00 1.21273E+00 7.94163E-01 7.27673E-01
          6.81642E-01 6.77135E-01                                     2.678E+01
 2.00E+08 2.54612E+01 2.33108E+01 2.16942E+01 2.09463E+01 2.06062E+01
          1.96219E+01 1.87280E+01 1.79172E+01 1.71875E+01 1.65375E+01
          1.59664E+01 1.54726E+01 1.50540E+01 1.47069E+01 1.44241E+01
          1.41974E+01 1.40175E+01 1.38583E+01 1.36756E+01 1.33855E+01
          1.27944E+01 1.22334E+01 1.12517E+01 9.78938E+00 6.38253E+00
          4.48660E+00 1.84660E+00 1.35503E+00 8.34887E-01 7.49246E-01
          6.83328E-01 6.76222E-01                                     2.723E+01
 3.00E+08 2.49992E+01 2.31318E+01 2.17075E+01 2.10044E+01 2.06416E+01
          1.96743E+01 1.87950E+01 1.79984E+01 1.72831E+01 1.66481E+01
          1.60934E+01 1.56182E+01 1.52209E+01 1.48992E+01 1.46474E+01
          1.44598E+01 1.43299E+01 1.42365E+01 1.41435E+01 1.39832E+01
          1.35884E+01 1.31611E+01 1.23402E+01 1.10196E+01 7.64355E+00
          5.55888E+00 2.26191E+00 1.61422E+00 9.11993E-01 7.92262E-01
          6.88519E-01 6.75564E-01                                     2.773E+01
 4.00E+08 2.46048E+01 2.29763E+01 2.17127E+01 2.10438E+01 2.06575E+01
          1.96982E+01 1.88256E+01 1.80364E+01 1.73290E+01 1.67031E+01
          1.61588E+01 1.56951E+01 1.53102E+01 1.50021E+01 1.47667E+01
          1.45998E+01 1.44971E+01 1.44403E+01 1.43995E+01 1.43203E+01
          1.40540E+01 1.37186E+01 1.30265E+01 1.18451E+01 8.57446E+00
          6.39344E+00 2.62991E+00 1.84974E+00 9.84275E-01 8.33790E-01
          6.95555E-01 6.75290E-01                                     2.802E+01
 5.00E+08 2.43191E+01 2.28626E+01 2.17146E+01 2.10699E+01 2.06665E+01
          1.97133E+01 1.88465E+01 1.80626E+01 1.73604E+01 1.67395E+01
          1.62002E+01 1.57419E+01 1.53643E+01 1.50657E+01 1.48419E+01
          1.46890E+01 1.46039E+01 1.45706E+01 1.45632E+01 1.45352E+01
          1.43608E+01 1.41017E+01 1.35115E+01 1.24348E+01 9.28844E+00
          7.08802E+00 2.96499E+00 2.06638E+00 1.05223E+00 8.73655E-01
          7.03214E-01 6.75357E-01                                     2.821E+01
 6.00E+08 2.41124E+01 2.27798E+01 2.17156E+01 2.10888E+01 2.06728E+01
          1.97198E+01 1.88524E+01 1.80705E+01 1.73726E+01 1.67575E+01
          1.62242E+01 1.57723E+01 1.54010E+01 1.51090E+01 1.48920E+01
          1.47469E+01 1.46720E+01 1.46543E+01 1.46720E+01 1.46848E+01
          1.45768E+01 1.43698E+01 1.38648E+01 1.28893E+01 9.86218E+00
          7.66710E+00 3.28884E+00 2.26794E+00 1.11732E+00 9.11257E-01
          7.11520E-01 6.75352E-01                                     2.834E+01
 8.00E+08 2.38628E+01 2.26804E+01 2.17172E+01 2.11117E+01 2.06809E+01
          1.97340E+01 1.88725E+01 1.80957E+01 1.74022E+01 1.67915E+01
          1.62629E+01 1.58162E+01 1.54511E+01 1.51666E+01 1.49593E+01
          1.48266E+01 1.47681E+01 1.47724E+01 1.48215E+01 1.48842E+01
          1.48676E+01 1.47394E+01 1.43589E+01 1.35420E+01 1.07571E+01
          8.59321E+00 3.90552E+00 2.63981E+00 1.23911E+00 9.83834E-01
          7.29158E-01 6.74482E-01                                     2.854E+01
 1.00E+09 2.36960E+01 2.26105E+01 2.17127E+01 2.11212E+01 2.06810E+01
          1.97371E+01 1.88780E+01 1.81038E+01 1.74135E+01 1.68060E+01
          1.62812E+01 1.58389E+01 1.54785E+01 1.51990E+01 1.49973E+01
          1.48714E+01 1.48219E+01 1.48395E+01 1.49093E+01 1.50053E+01
          1.50472E+01 1.49707E+01 1.46816E+01 1.39897E+01 1.14126E+01
          9.31465E+00 4.44029E+00 2.97328E+00 1.35264E+00 1.05127E+00
          7.46959E-01 6.74458E-01                                     2.865E+01
 1.50E+09 2.34564E+01 2.25154E+01 2.17146E+01 2.11433E+01 2.06884E+01
          1.97500E+01 1.88960E+01 1.81259E+01 1.74389E+01 1.68350E+01
          1.63144E+01 1.58771E+01 1.55224E+01 1.52491E+01 1.50551E+01
          1.49394E+01 1.49035E+01 1.49396E+01 1.50363E+01 1.51784E+01
          1.53087E+01 1.53114E+01 1.51578E+01 1.46704E+01 1.25376E+01
          1.06114E+01 5.53758E+00 3.72698E+00 1.61134E+00 1.20804E+00
          7.91453E-01 6.73726E-01                                     2.884E+01
 2.00E+09 2.33198E+01 2.24612E+01 2.17155E+01 2.11554E+01 2.06920E+01
          1.97554E+01 1.89036E+01 1.81354E+01 1.74504E+01 1.68487E+01
          1.63311E+01 1.58965E+01 1.55441E+01 1.52731E+01 1.50827E+01
          1.49732E+01 1.49459E+01 1.49920E+01 1.51009E+01 1.52649E+01
          1.54482E+01 1.55003E+01 1.54162E+01 1.50304E+01 1.32520E+01
          1.15495E+01 6.37489E+00 4.38458E+00 1.84546E+00 1.35824E+00
          8.34558E-01 6.74256E-01                                     2.894E+01
 3.00E+09 2.31870E+01 2.24119E+01 2.17212E+01 2.11699E+01 2.06948E+01
          1.97574E+01 1.89063E+01 1.81402E+01 1.74583E+01 1.68598E+01
          1.63447E+01 1.59130E+01 1.55645E+01 1.52981E+01 1.51106E+01
          1.50016E+01 1.49767E+01 1.50371E+01 1.51783E+01 1.53777E+01
          1.55872E+01 1.56688E+01 1.56841E+01 1.54936E+01 1.41179E+01
