 PENELOPE (v. 2012)  Material data file ...............
 Material: Ag                                                            
 Mass density = 1.05000000E+01 g/cm**3
 Number of elements in the molecule =  1
   atomic number = 47,  atoms/molecule = 1.00000000E+00
 Mean excitation energy = 4.70000000E+02 eV
 Number of oscillators = 14 (E/P inelastic model)
   1  1.00000000E+00  0.00000000E+00  8.99035950E+00   0  30
   2  1.00000000E+01  1.04000000E+01  2.61724517E+01  47  30
   3  4.00000000E+00  6.30000000E+01  1.22648000E+02  47  12
   4  2.00000000E+00  6.90000000E+01  1.33766355E+02  47  11
   5  2.00000000E+00  1.01000000E+02  1.95488228E+02  47  10
   6  6.00000000E+00  3.73000000E+02  7.21157092E+02  47   9
   7  4.00000000E+00  3.79000000E+02  7.32676779E+02  47   8
   8  4.00000000E+00  5.77000000E+02  1.11531991E+03  47   7
   9  2.00000000E+00  6.08000000E+02  1.17518581E+03  47   6
  10  2.00000000E+00  7.24000000E+02  1.39938279E+03  47   5
  11  4.00000000E+00  3.35700000E+03  6.48841270E+03  47   4
  12  2.00000000E+00  3.53000000E+03  6.82277769E+03  47   3
  13  2.00000000E+00  3.81200000E+03  7.36782558E+03  47   2
  14  2.00000000E+00  2.55200000E+04  4.93249544E+04  47   1
 Number of shells = 14 (Compton IA model)
   1  1.00000000E+00  0.00000000E+00  1.47886754E+00   0  30
   2  1.00000000E+01  1.04000000E+01  2.49610200E-01  47  30
   3  4.00000000E+00  6.30000000E+01  2.49007000E-01  47  12
   4  2.00000000E+00  6.90000000E+01  2.41610000E-01  47  11
   5  2.00000000E+00  1.01000000E+02  3.68844000E-01  47  10
   6  6.00000000E+00  3.73000000E+02  6.25606000E-02  47   9
   7  4.00000000E+00  3.79000000E+02  6.19949000E-02  47   8
   8  4.00000000E+00  5.77000000E+02  9.14652000E-02  47   7
   9  2.00000000E+00  6.08000000E+02  8.90624000E-02  47   6
  10  2.00000000E+00  7.24000000E+02  1.49488000E-01  47   5
  11  4.00000000E+00  3.35700000E+03  3.26569000E-02  47   4
  12  2.00000000E+00  3.53000000E+03  3.14570000E-02  47   3
  13  2.00000000E+00  3.81200000E+03  6.30669000E-02  47   2
  14  2.00000000E+00  2.55200000E+04  1.74888000E-02  47   1
 *** RELAX:  Z = 47,  no. of shells = 15,  no. of transitions = 529
   1 1s1/2 2  2.55200E+04  1.74888E-02
   2 2s1/2 2  3.81200E+03  6.30669E-02
   3 2p1/2 2  3.53000E+03  3.14570E-02
   4 2p3/2 4  3.35700E+03  3.26569E-02
   5 3s1/2 2  7.24000E+02  1.49488E-01
   6 3p1/2 2  6.08000E+02  8.90624E-02
   7 3p3/2 4  5.77000E+02  9.14652E-02
   8 3d3/2 4  3.79000E+02  6.19949E-02
   9 3d5/2 6  3.73000E+02  6.25606E-02
  10 4s1/2 2  1.01000E+02  3.68844E-01
  11 4p1/2 2  6.90000E+01  2.41610E-01
  12 4p3/2 4  6.30000E+01  2.49007E-01
  13 4d3/2 4  1.10000E+01  2.46726E-01
  14 4d5/2 6  1.00000E+01  2.51533E-01
  17 5s1/2 1  7.58000E+00  1.64461E+00
   1  3  0  2.40010E-01  2.19903E+04
   1  4  0  4.52271E-01  2.21629E+04
   1  6  0  3.94350E-02  2.49115E+04
   1  7  0  7.66271E-02  2.49424E+04
   1  8  0  2.66540E-04  2.51455E+04
   1  9  0  3.71920E-04  2.51455E+04
   1 11  0  8.01611E-03  2.54206E+04
   1 12  0  1.55010E-02  2.54259E+04
   1 13  0  3.00340E-05  2.54765E+04
   1 14  0  4.13960E-05  2.54771E+04
   1  2  2  1.24287E-02  1.79222E+04
   1  2  3  1.43406E-02  1.81775E+04
   1  2  4  1.98916E-02  1.83556E+04
   1  2  5  4.21957E-03  2.10018E+04
   1  2  6  2.57543E-03  2.11054E+04
   1  2  7  3.57864E-03  2.11371E+04
   1  2  8  2.17263E-04  2.13226E+04
   1  2  9  2.53808E-04  2.13290E+04
   1  2 10  8.09640E-04  2.16040E+04
   1  2 11  4.45778E-04  2.16372E+04
   1  2 12  6.12048E-04  2.16425E+04
   1  2 13  2.53005E-05  2.16931E+04
   1  2 14  2.93170E-05  2.16937E+04
   1  2 17  3.53413E-05  2.16987E+04
   1  3  3  2.03503E-03  1.84328E+04
   1  3  4  4.43833E-02  1.86109E+04
   1  3  5  2.01606E-03  2.12571E+04
   1  3  6  6.60224E-04  2.13607E+04
   1  3  7  6.69116E-03  2.13924E+04
   1  3  8  2.73082E-04  2.15779E+04
   1  3  9  9.46165E-04  2.15844E+04
   1  3 10  3.73102E-04  2.18593E+04
   1  3 11  1.12453E-04  2.18925E+04
   1  3 12  1.11127E-03  2.18978E+04
   1  3 13  3.17262E-05  2.19484E+04
   1  3 14  1.08438E-04  2.19490E+04
   1  3 17  1.60639E-05  2.19540E+04
   1  4  4  2.29225E-02  1.87890E+04
   1  4  5  2.77353E-03  2.14352E+04
   1  4  6  6.58675E-03  2.15388E+04
   1  4  7  7.07956E-03  2.15705E+04
   1  4  8  1.14177E-03  2.17560E+04
   1  4  9  1.07065E-03  2.17625E+04
   1  4 10  5.12452E-04  2.20374E+04
   1  4 11  1.10481E-03  2.20706E+04
   1  4 12  1.18154E-03  2.20759E+04
   1  4 13  1.32532E-04  2.21265E+04
   1  4 14  1.22895E-04  2.21271E+04
   1  4 17  2.20884E-05  2.21321E+04
   1  5  5  3.53001E-04  2.40814E+04
   1  5  6  3.65463E-04  2.41850E+04
   1  5  7  5.02811E-04  2.42167E+04
   1  5  8  2.85144E-05  2.44022E+04
   1  5  9  3.25300E-05  2.44087E+04
   1  5 10  1.34938E-04  2.46836E+04
   1  5 11  6.34518E-05  2.47168E+04
   1  5 12  8.59411E-05  2.47221E+04
   1  5 13  3.21273E-06  2.47727E+04
   1  5 14  3.61439E-06  2.47733E+04
   1  5 17  6.02394E-06  2.47783E+04
   1  6  6  5.14049E-05  2.42886E+04
   1  6  7  1.00764E-03  2.43203E+04
   1  6  8  3.17261E-05  2.45058E+04
   1  6  9  1.10846E-04  2.45123E+04
   1  6 10  6.78713E-05  2.47872E+04
   1  6 11  1.72694E-05  2.48204E+04
   1  6 12  1.67469E-04  2.48257E+04
   1  6 13  3.61442E-06  2.48763E+04
   1  6 14  1.28514E-05  2.48770E+04
   1  6 17  2.81112E-06  2.48819E+04
   1  7  7  5.48157E-04  2.43519E+04
   1  7  8  1.40147E-04  2.45375E+04
   1  7  9  1.28102E-04  2.45439E+04
   1  7 10  9.31669E-05  2.48189E+04
   1  7 11  1.69473E-04  2.48521E+04
   1  7 12  1.83116E-04  2.48573E+04
   1  7 13  1.64645E-05  2.49080E+04
   1  7 14  1.48585E-05  2.49086E+04
   1  7 17  4.01585E-06  2.49136E+04
   1  8  9  1.60641E-05  2.47295E+04
   1  8 10  5.22099E-06  2.50044E+04
   1  8 11  5.22099E-06  2.50376E+04
   1  8 12  2.24899E-05  2.50429E+04
   1  8 14  1.60641E-06  2.50941E+04
   1  8 17  4.01613E-07  2.50991E+04
   1  9  9  4.17417E-06  2.47359E+04
   1  9 10  6.26116E-06  2.50108E+04
   1  9 11  1.83667E-05  2.50440E+04
   1  9 12  2.12872E-05  2.50493E+04
   1  9 13  1.66963E-06  2.51000E+04
   1  9 14  8.34824E-07  2.51006E+04
   1  9 17  4.17417E-07  2.51056E+04
   1 10 10  1.38173E-05  2.52858E+04
   1 10 11  1.25221E-05  2.53190E+04
   1 10 12  1.72711E-05  2.53243E+04
   1 10 13  8.63567E-07  2.53749E+04
   1 10 14  8.63567E-07  2.53755E+04
   1 10 17  1.29539E-06  2.53805E+04
   1 11 11  1.64374E-06  2.53522E+04
   1 11 12  2.87649E-05  2.53575E+04
   1 11 13  4.10944E-07  2.54081E+04
   1 11 14  2.05452E-06  2.54087E+04
   1 11 17  4.10944E-07  2.54137E+04
   1 12 12  1.64699E-05  2.53627E+04
   1 12 13  3.03387E-06  2.54134E+04
   1 12 14  2.60039E-06  2.54140E+04
   1 12 17  8.66846E-07  2.54190E+04
   1 13 14  4.01610E-07  2.54647E+04
   2  3  0  1.68020E-05  2.55300E+02
   2  4  0  1.43670E-04  4.33400E+02
   2  6  0  4.63860E-03  3.20349E+03
   2  7  0  7.71881E-03  3.23449E+03
   2  8  0  5.12670E-05  3.43291E+03
   2  9  0  7.64721E-05  3.43921E+03
   2 11  0  8.29451E-04  3.71499E+03
   2 12  0  1.39380E-03  3.72026E+03
   2 13  0  4.09120E-06  3.77093E+03
   2 14  0  6.10301E-06  3.77154E+03
   2  3 10  2.96700E-02  1.53690E+02
   2  3 11  2.00846E-02  1.86890E+02
   2  3 12  2.67853E-02  1.92160E+02
   2  3 13  5.41292E-03  2.42830E+02
   2  3 14  8.90858E-03  2.43440E+02
   2  3 17  1.24959E-03  2.48410E+02
   2  4  8  1.57803E-01  5.04100E+01
   2  4  9  3.55506E-01  5.68500E+01
   2  4 10  4.25130E-02  3.31790E+02
   2  4 11  1.84771E-02  3.64990E+02
   2  4 12  3.61112E-02  3.70260E+02
   2  4 13  2.27109E-02  4.20930E+02
   2  4 14  2.95294E-02  4.21540E+02
   2  4 17  1.79036E-03  4.26510E+02
   2  5  5  7.50775E-03  2.37580E+03
   2  5  6  1.48024E-02  2.47941E+03
   2  5  7  2.78844E-02  2.51107E+03
   2  5  8  2.21083E-02  2.69661E+03
   2  5  9  3.16912E-02  2.70305E+03
   2  5 10  2.47961E-03  2.97799E+03
   2  5 11  2.51377E-03  3.01119E+03
   2  5 12  4.67524E-03  3.01646E+03
   2  5 13  2.27058E-03  3.06713E+03
   2  5 14  3.21109E-03  3.06774E+03
   2  5 17  1.05730E-04  3.07271E+03
   2  6  6  1.03716E-04  2.58302E+03
   2  6  7  6.32378E-04  2.61468E+03
   2  6  8  5.40233E-04  2.80022E+03
   2  6  9  7.85035E-03  2.80666E+03
   2  6 10  1.99219E-03  3.08160E+03
   2  6 11  2.01387E-05  3.11480E+03
   2  6 12  1.00698E-04  3.12007E+03
   2  6 13  5.63904E-05  3.17074E+03
   2  6 14  5.56850E-04  3.17135E+03
   2  6 17  8.20666E-05  3.17632E+03
   2  7  7  6.59578E-04  2.64634E+03
   2  7  8  6.23076E-03  2.83188E+03
   2  7  9  4.31336E-03  2.83832E+03
   2  7 10  3.75399E-03  3.11326E+03
   2  7 11  1.00701E-04  3.14646E+03
   2  7 12  1.73714E-04  3.15173E+03
   2  7 13  4.07844E-04  3.20240E+03
   2  7 14  2.89506E-04  3.20301E+03
   2  7 17  1.54570E-04  3.20798E+03
   2  8  8  1.17964E-03  3.01742E+03
   2  8  9  4.51465E-02  3.02386E+03
   2  8 10  2.83821E-03  3.29880E+03
   2  8 11  1.20333E-04  3.33200E+03
   2  8 12  1.03766E-03  3.33727E+03
   2  8 13  2.41675E-04  3.38794E+03
   2  8 14  3.51077E-03  3.38855E+03
   2  8 17  1.16306E-04  3.39352E+03
   2  9  9  1.27085E-02  3.03030E+03
   2  9 10  4.08464E-03  3.30524E+03
   2  9 11  1.23098E-03  3.33844E+03
   2  9 12  7.51693E-04  3.34371E+03
   2  9 13  3.52131E-03  3.39438E+03
   2  9 14  2.05221E-03  3.39499E+03
   2  9 17  1.67652E-04  3.39996E+03
   2 10 10  1.95363E-04  3.58018E+03
   2 10 11  3.38860E-04  3.61338E+03
   2 10 12  6.29876E-04  3.61865E+03
   2 10 13  2.90528E-04  3.66932E+03
   2 10 14  4.12360E-04  3.66993E+03
   2 10 17  1.66146E-05  3.67490E+03
   2 11 11  1.00697E-06  3.64658E+03
   2 11 12  1.61117E-05  3.65185E+03
   2 11 13  1.10768E-05  3.70252E+03
   2 11 14  8.96183E-05  3.70313E+03
   2 11 17  1.40964E-05  3.70810E+03
   2 12 12  1.15795E-05  3.65712E+03
   2 12 13  7.09902E-05  3.70779E+03
   2 12 14  5.18587E-05  3.70840E+03
   2 12 17  2.61817E-05  3.71337E+03
   2 13 13  1.20830E-05  3.75846E+03
   2 13 14  2.87994E-04  3.75907E+03
   2 13 17  1.20830E-05  3.76404E+03
   2 14 14  8.66014E-05  3.75968E+03
   2 14 17  1.71187E-05  3.76465E+03
   3  4  0  1.54060E-08  1.78100E+02
   3  5  0  3.43680E-03  2.80611E+03
   3  7  0  4.07270E-05  2.95240E+03
   3  8  0  4.65050E-02  3.15097E+03
   3 10  0  3.62160E-04  3.42649E+03
   3 12  0  2.68350E-06  3.46496E+03
   3 13  0  4.34690E-03  3.51563E+03
   3 17  0  8.58879E-06  3.52121E+03
   3  4 10  1.40207E-02  7.64900E+01
   3  4 11  5.25703E-02  1.09690E+02
   3  4 12  1.89685E-02  1.14960E+02
   3  4 13  5.38634E-02  1.65630E+02
   3  4 14  2.03836E-02  1.66240E+02
   3  4 17  5.53415E-04  1.71210E+02
   3  5  5  1.24136E-03  2.12050E+03
   3  5  6  2.80792E-02  2.22411E+03
   3  5  7  2.70218E-03  2.25577E+03
   3  5  8  1.77590E-03  2.44131E+03
   3  5  9  4.06256E-03  2.44775E+03
   3  5 10  3.84671E-04  2.72269E+03
   3  5 11  3.38062E-03  2.75589E+03
   3  5 12  4.04727E-04  2.76116E+03
   3  5 13  1.35699E-04  2.81183E+03
   3  5 14  2.72566E-04  2.81244E+03
   3  5 17  1.65199E-05  2.81741E+03
   3  6  6  2.72170E-02  2.32772E+03
   3  6  7  8.77100E-02  2.35938E+03
   3  6  8  4.68534E-02  2.54492E+03
   3  6  9  8.22458E-02  2.55136E+03
   3  6 10  5.49018E-03  2.82630E+03
   3  6 11  8.01433E-03  2.85950E+03
   3  6 12  1.44490E-02  2.86477E+03
   3  6 13  4.79637E-03  2.91544E+03
   3  6 14  8.33520E-03  2.91605E+03
   3  6 17  2.38344E-04  2.92102E+03
   3  7  7  2.34330E-03  2.39104E+03
   3  7  8  5.74909E-02  2.57658E+03
   3  7  9  7.76771E-03  2.58302E+03
   3  7 10  4.56659E-04  2.85796E+03
   3  7 11  1.09376E-02  2.89116E+03
   3  7 12  6.56053E-04  2.89643E+03
   3  7 13  5.16808E-03  2.94710E+03
   3  7 14  6.46589E-04  2.94771E+03
   3  7 17  2.00593E-05  2.95268E+03
   3  8  8  5.17162E-02  2.76212E+03
   3  8  9  2.24889E-01  2.76856E+03
   3  8 10  3.57530E-04  3.04350E+03
   3  8 11  5.85017E-03  3.07670E+03
   3  8 12  8.99016E-03  3.08197E+03
   3  8 13  9.26857E-03  3.13264E+03
   3  8 14  2.11728E-02  3.13325E+03
   3  8 17  1.53398E-05  3.13822E+03
   3  9  9  1.06886E-02  2.77500E+03
   3  9 10  6.80849E-04  3.04994E+03
   3  9 11  9.25059E-03  3.08314E+03
   3  9 12  1.11623E-03  3.08841E+03
   3  9 13  1.75588E-02  3.13908E+03
   3  9 14  1.85132E-03  3.13969E+03
   3  9 17  2.94986E-05  3.14466E+03
   3 10 10  3.86750E-05  3.32488E+03
   3 10 11  8.69393E-04  3.35808E+03
   3 10 12  8.97247E-05  3.36335E+03
   3 10 13  3.40343E-05  3.41402E+03
   3 10 14  6.18782E-05  3.41463E+03
   3 10 17  3.09398E-06  3.41960E+03
   3 11 11  5.72870E-04  3.39128E+03
   3 11 12  1.81488E-03  3.39655E+03
   3 11 13  5.95447E-04  3.44722E+03
   3 11 14  9.49576E-04  3.44783E+03
   3 11 17  2.85233E-05  3.45280E+03
   3 12 12  4.60176E-05  3.40182E+03
   3 12 13  8.14144E-04  3.45249E+03
   3 12 14  9.55777E-05  3.45310E+03
   3 12 17  2.35989E-06  3.45807E+03
   3 13 13  4.11793E-04  3.50316E+03
   3 13 14  1.69322E-03  3.50377E+03
   3 13 17  1.17988E-06  3.50874E+03
   3 14 14  8.43111E-05  3.50438E+03
   3 14 17  2.47977E-06  3.50935E+03
   4  5  0  5.80057E-03  2.63366E+03
   4  6  0  2.77053E-05  2.74980E+03
   4  7  0  2.60823E-05  2.78010E+03
   4  8  0  4.71305E-03  2.97824E+03
   4  9  0  4.18065E-02  2.98434E+03
   4 10  0  3.76594E-04  3.24839E+03
   4 11  0  1.37262E-06  3.28159E+03
   4 12  0  1.30602E-06  3.28686E+03
   4 13  0  4.33485E-04  3.33753E+03
   4 14  0  3.81994E-03  3.33814E+03
   4 17  0  1.07151E-05  3.34311E+03
   4  5  5  1.56830E-03  1.94240E+03
   4  5  6  1.16599E-03  2.04601E+03
   4  5  7  3.24760E-02  2.07767E+03
   4  5  8  3.15200E-03  2.26321E+03
   4  5  9  3.30574E-03  2.26965E+03
   4  5 10  4.85617E-04  2.54459E+03
   4  5 11  1.69139E-04  2.57779E+03
   4  5 12  3.89389E-03  2.58306E+03
   4  5 13  1.93475E-04  2.63373E+03
   4  5 14  1.90908E-04  2.63434E+03
   4  5 17  2.05004E-05  2.63931E+03
   4  6  6  4.10019E-04  2.14962E+03
   4  6  7  5.37241E-02  2.18128E+03
   4  6  8  3.70436E-03  2.36682E+03
   4  6  9  3.32171E-02  2.37326E+03
   4  6 10  1.93480E-04  2.64820E+03
   4  6 11  1.17881E-04  2.68140E+03
   4  6 12  6.64992E-03  2.68667E+03
   4  6 13  3.57488E-04  2.73734E+03
   4  6 14  2.82917E-03  2.73795E+03
   4  6 17  7.68776E-06  2.74292E+03
   4  7  7  7.67020E-02  2.21294E+03
   4  7  8  7.64292E-02  2.39848E+03
   4  7  9  1.16709E-01  2.40492E+03
   4  7 10  6.29241E-03  2.67986E+03
   4  7 11  8.80641E-03  2.71306E+03
   4  7 12  2.21180E-02  2.71833E+03
   4  7 13  7.58916E-03  2.76900E+03
   4  7 14  1.13651E-02  2.76961E+03
   4  7 17  2.72920E-04  2.77458E+03
   4  8  8  1.09295E-02  2.58402E+03
   4  8  9  2.11329E-01  2.59046E+03
   4  8 10  5.66329E-04  2.86540E+03
   4  8 11  6.02204E-04  2.89860E+03
   4  8 12  8.90009E-03  2.90387E+03
   4  8 13  1.97062E-03  2.95454E+03
   4  8 14  1.66111E-02  2.95515E+03
   4  8 17  2.43438E-05  2.96012E+03
   4  9  9  1.43784E-01  2.59690E+03
   4  9 10  6.31694E-04  2.87184E+03
   4  9 11  5.11008E-03  2.90504E+03
   4  9 12  1.50159E-02  2.91031E+03
   4  9 13  1.92408E-02  2.96098E+03
   4  9 14  2.47427E-02  2.96159E+03
   4  9 17  2.69076E-05  2.96656E+03
   4 10 10  4.84321E-05  3.14678E+03
   4 10 11  3.67411E-05  3.17998E+03
   4 10 12  9.85335E-04  3.18525E+03
   4 10 13  4.67627E-05  3.23592E+03
   4 10 14  5.01028E-05  3.23653E+03
   4 10 17  3.34023E-06  3.24150E+03
   4 11 11  7.74242E-06  3.21318E+03
   4 11 12  1.09694E-03  3.21845E+03
   4 11 13  5.80704E-05  3.26912E+03
   4 11 14  4.47778E-04  3.26973E+03
   4 11 17  1.29053E-06  3.27470E+03
   4 12 12  1.55162E-03  3.22372E+03
   4 12 13  8.85396E-04  3.27439E+03
   4 12 14  1.44912E-03  3.27500E+03
   4 12 17  3.33142E-05  3.27997E+03
   4 13 13  8.71313E-05  3.32506E+03
   4 13 14  1.54531E-03  3.32567E+03
   4 13 17  1.28145E-06  3.33064E+03
   4 14 14  1.04386E-03  3.32628E+03
   4 14 17  1.25022E-06  3.33125E+03
   5  6  0  1.17609E-05  1.03610E+02
   5  7  0  5.40680E-05  1.35270E+02
   5 11  0  1.07080E-04  6.35390E+02
   5 12  0  1.55547E-04  6.40660E+02
   5  6 13  4.68491E-02  9.11400E+01
   5  6 14  6.18134E-02  9.17500E+01
   5  6 17  1.57056E-03  9.67200E+01
   5  7 11  8.61447E-02  6.68600E+01
   5  7 12  1.37576E-01  7.21300E+01
   5  7 13  4.48569E-02  1.22800E+02
   5  7 14  6.63488E-02  1.23410E+02
   5  7 17  2.43607E-03  1.28380E+02
   5  8 10  3.10946E-02  2.19200E+02
   5  8 11  5.92315E-03  2.52400E+02
   5  8 12  4.48021E-03  2.57670E+02
   5  8 13  4.78314E-03  3.08340E+02
   5  8 14  5.49568E-03  3.08950E+02
   5  8 17  7.21350E-04  3.13920E+02
   5  9 10  4.57588E-02  2.25640E+02
   5  9 11  1.68410E-03  2.58840E+02
   5  9 12  1.17807E-02  2.64110E+02
   5  9 13  5.82763E-03  3.14780E+02
   5  9 14  9.45349E-03  3.15390E+02
   5  9 17  1.05944E-03  3.20360E+02
   5 10 10  1.28606E-02  5.00580E+02
   5 10 11  1.93837E-02  5.33780E+02
   5 10 12  3.59725E-02  5.39050E+02
   5 10 13  2.48813E-02  5.89720E+02
   5 10 14  3.59013E-02  5.90330E+02
   5 10 17  6.91002E-04  5.95300E+02
   5 11 11  1.25464E-03  5.66980E+02
   5 11 12  3.01549E-03  5.72250E+02
   5 11 13  1.32745E-03  6.22920E+02
   5 11 14  3.79271E-04  6.23530E+02
   5 11 17  4.79157E-04  6.28500E+02
   5 12 12  3.97971E-03  5.77520E+02
   5 12 13  1.02827E-03  6.28190E+02
   5 12 14  3.11358E-03  6.28800E+02
   5 12 17  8.89862E-04  6.33770E+02
   5 13 13  3.38126E-04  6.78860E+02
   5 13 14  7.59755E-04  6.79470E+02
   5 13 17  7.18024E-04  6.84440E+02
   5 14 14  7.52422E-04  6.80080E+02
   5 14 17  1.16108E-03  6.85050E+02
   6  8  0  4.27938E-04  2.29500E+02
   6 10  0  2.06329E-04  4.98580E+02
   6 13  0  4.15938E-04  5.87720E+02
   6 17  0  6.78877E-06  5.93300E+02
   6  8 10  1.45617E-01  1.15590E+02
   6  8 11  1.48882E-01  1.48790E+02
   6  8 12  2.26187E-01  1.54060E+02
   6  8 13  4.01223E-02  2.04730E+02
   6  8 14  3.75358E-02  2.05340E+02
   6  8 17  4.63286E-03  2.10310E+02
   6  9 10  2.50795E-02  1.22030E+02
   6  9 11  1.93335E-01  1.55230E+02
   6  9 12  2.05233E-02  1.60500E+02
   6  9 13  4.95939E-03  2.11170E+02
   6  9 14  5.55855E-03  2.11780E+02
   6  9 17  5.73315E-04  2.16750E+02
   6 10 10  6.88665E-04  3.96970E+02
   6 10 11  1.01020E-02  4.30170E+02
   6 10 12  1.62728E-03  4.35440E+02
   6 10 13  3.34769E-04  4.86110E+02
   6 10 14  7.62036E-04  4.86720E+02
   6 10 17  3.51594E-05  4.91690E+02
   6 11 11  6.56237E-03  4.63370E+02
   6 11 12  2.06892E-02  4.68640E+02
   6 11 13  1.24316E-02  5.19310E+02
   6 11 14  2.05715E-02  5.19920E+02
   6 11 17  3.08085E-04  5.24890E+02
   6 12 12  5.69607E-04  4.73910E+02
   6 12 13  1.51634E-03  5.24580E+02
   6 12 14  9.87935E-04  5.25190E+02
   6 12 17  3.96109E-05  5.30160E+02
   6 13 13  3.72564E-04  5.75250E+02
   6 13 14  7.46627E-04  5.75860E+02
   6 13 17  9.90451E-06  5.80830E+02
   6 14 14  1.91000E-04  5.76470E+02
   6 14 17  1.91792E-05  5.81440E+02
   7  8  0  2.91336E-05  1.85540E+02
   7  9  0  2.95566E-04  2.04800E+02
   7 10  0  2.51377E-04  4.66920E+02
   7 13  0  5.20803E-05  5.56060E+02
   7 14  0  4.28195E-04  5.56670E+02
   7 17  0  8.22321E-06  5.61640E+02
   7  8 10  2.98474E-02  8.39300E+01
   7  8 11  2.08601E-02  1.17130E+02
   7  8 12  1.37843E-01  1.22400E+02
   7  8 13  9.70871E-03  1.73070E+02
   7  8 14  6.57618E-03  1.73680E+02
   7  8 17  7.88437E-04  1.78650E+02
   7  9 10  1.39899E-01  9.03700E+01
   7  9 11  1.38922E-01  1.23570E+02
   7  9 12  2.95727E-01  1.28840E+02
   7  9 13  3.21096E-02  1.79510E+02
   7  9 14  6.05906E-02  1.80120E+02
   7  9 17  4.36072E-03  1.85090E+02
   7 10 10  9.33720E-04  3.65310E+02
   7 10 11  1.36100E-03  3.98510E+02
   7 10 12  1.98467E-02  4.03780E+02
   7 10 13  9.03667E-04  4.54450E+02
   7 10 14  1.03341E-03  4.55060E+02
   7 10 17  4.77785E-05  4.60030E+02
   7 11 11  2.13114E-04  4.31710E+02
   7 11 12  1.86909E-02  4.36980E+02
   7 11 13  4.44510E-04  4.87650E+02
   7 11 14  2.13357E-03  4.88260E+02
   7 11 17  2.92286E-05  4.93230E+02
   7 12 12  2.41584E-02  4.42250E+02
   7 12 13  2.12754E-02  4.92920E+02
   7 12 14  2.87896E-02  4.93530E+02
   7 12 17  4.74156E-04  4.98500E+02
   7 13 13  9.57190E-05  5.43590E+02
   7 13 14  6.94116E-04  5.44200E+02
   7 13 17  1.03294E-05  5.49170E+02
   7 14 14  5.54075E-04  5.44810E+02
   7 14 17  1.34972E-05  5.49780E+02
   8 11  0  4.96493E-04  3.14580E+02
   8 12  0  8.38964E-05  3.19850E+02
   8 10 10  1.36972E-03  1.79770E+02
   8 10 11  1.65080E-02  2.12970E+02
   8 10 12  1.68149E-02  2.18240E+02
   8 10 13  1.47468E-01  2.68910E+02
   8 10 14  2.54562E-02  2.69520E+02
   8 10 17  5.40635E-05  2.74490E+02
   8 11 11  1.26149E-03  2.46170E+02
   8 11 12  2.58785E-02  2.51440E+02
   8 11 13  1.06279E-01  3.02110E+02
   8 11 14  9.53303E-03  3.02720E+02
   8 11 17  1.89219E-04  3.07690E+02
   8 12 12  1.11640E-02  2.56710E+02
   8 12 13  2.36616E-01  3.07380E+02
   8 12 14  1.02005E-02  3.07990E+02
   8 12 17  2.61304E-04  3.12960E+02
   8 13 13  1.25271E-01  3.58050E+02
   8 13 14  2.56030E-01  3.58660E+02
   8 13 17  4.09092E-03  3.63630E+02
   8 14 14  4.55197E-03  3.59270E+02
   8 14 17  4.22359E-04  3.64240E+02
   9 12  0  5.18596E-04  3.13410E+02
   9 10 10  1.87976E-03  1.73330E+02
   9 10 11  1.02446E-02  2.06530E+02
   9 10 12  2.62179E-02  2.11800E+02
   9 10 13  1.86547E-02  2.62470E+02
   9 10 14  1.54974E-01  2.63080E+02
   9 10 17  7.12716E-05  2.68050E+02
   9 11 11  6.23610E-05  2.39730E+02
   9 11 12  2.63160E-02  2.45000E+02
   9 11 13  2.36087E-03  2.95670E+02
   9 11 14  1.29281E-01  2.96280E+02
   9 11 17  1.51456E-04  3.01250E+02
   9 12 12  1.69621E-02  2.50270E+02
   9 12 13  1.22311E-02  3.00940E+02
   9 12 14  2.15320E-01  3.01550E+02
   9 12 17  3.29623E-04  3.06520E+02
   9 13 13  1.84422E-03  3.51610E+02
   9 13 14  1.76244E-01  3.52220E+02
   9 13 17  2.93989E-04  3.57190E+02
   9 14 14  2.01873E-01  3.52830E+02
   9 14 17  4.16944E-03  3.57800E+02
  10 13 13  9.12451E-04  7.66700E+01
  10 13 14  2.95812E-02  7.72800E+01
  10 13 17  1.95331E-03  8.22500E+01
  10 14 14  7.48201E-03  7.78900E+01
  10 14 17  2.46620E-03  8.28600E+01
  11 13  0  1.82340E-05  5.59400E+01
  11 17  0  4.04071E-07  6.15200E+01
  12 13  0  4.82828E-07  5.06700E+01
  12 14  0  4.50238E-06  5.12800E+01
  12 17  0  1.41619E-07  5.62500E+01
   5 30 30  2.75126E-01  3.07023E+01
   6 30 30  6.73708E-02  1.97994E+01
  10 30  0  2.44369E-05  3.70957E+01
  10 30 30  9.57581E-01  2.50075E+01
  11 30 30  9.99981E-01  4.40296E+01
  12 30 30  9.99995E-01  3.90676E+01
 *** Electron scaled bremss x-section,  ZEQ = 4.70000E+01,  NDATA =  57
 1.00E+03 1.17926E+00 1.20129E+00 1.22342E+00 1.24574E+00 1.26826E+00
          1.31392E+00 1.36028E+00 1.40716E+00 1.45435E+00 1.50159E+00
          1.54865E+00 1.59525E+00 1.64113E+00 1.68618E+00 1.73056E+00
          1.77428E+00 1.81659E+00 1.85650E+00 1.89307E+00 1.92626E+00
          1.95569E+00 1.96873E+00 1.98209E+00 1.99436E+00 2.01306E+00
          2.01970E+00 2.02296E+00 2.02283E+00 2.02274E+00 2.02276E+00
          2.02247E+00 2.02343E+00                                     1.405E+00
 1.50E+03 1.57588E+00 1.60194E+00 1.62803E+00 1.65418E+00 1.68045E+00
          1.73343E+00 1.78680E+00 1.84032E+00 1.89374E+00 1.94674E+00
          1.99903E+00 2.05035E+00 2.10044E+00 2.14926E+00 2.19720E+00
          2.24444E+00 2.29026E+00 2.33374E+00 2.37393E+00 2.41087E+00
          2.44396E+00 2.45833E+00 2.47185E+00 2.48251E+00 2.49673E+00
          2.50218E+00 2.50837E+00 2.50824E+00 2.50546E+00 2.50463E+00
          2.50506E+00 2.50915E+00                                     1.798E+00
 2.00E+03 1.92027E+00 1.94991E+00 1.97946E+00 2.00888E+00 2.03827E+00
          2.09715E+00 2.15582E+00 2.21399E+00 2.27126E+00 2.32727E+00
          2.38163E+00 2.43406E+00 2.48435E+00 2.53257E+00 2.57946E+00
          2.62556E+00 2.67030E+00 2.71292E+00 2.75286E+00 2.79090E+00
          2.82710E+00 2.84337E+00 2.85749E+00 2.86703E+00 2.87960E+00
          2.88451E+00 2.88969E+00 2.88957E+00 2.88733E+00 2.88667E+00
          2.88702E+00 2.89030E+00                                     2.124E+00
 3.00E+03 2.49378E+00 2.53333E+00 2.57206E+00 2.60934E+00 2.64536E+00
          2.71432E+00 2.77859E+00 2.83807E+00 2.89306E+00 2.94454E+00
          2.99401E+00 3.04169E+00 3.08760E+00 3.13179E+00 3.17498E+00
          3.21759E+00 3.25905E+00 3.29831E+00 3.33460E+00 3.36876E+00
          3.40142E+00 3.41679E+00 3.43181E+00 3.44346E+00 3.45530E+00
          3.45819E+00 3.45960E+00 3.45998E+00 3.46106E+00 3.46130E+00
          3.46126E+00 3.46022E+00                                     2.644E+00
 4.00E+03 2.96386E+00 3.01382E+00 3.06152E+00 3.10521E+00 3.14535E+00
          3.21762E+00 3.28062E+00 3.33727E+00 3.38839E+00 3.43494E+00
          3.47838E+00 3.51924E+00 3.55819E+00 3.59547E+00 3.63098E+00
          3.66468E+00 3.69671E+00 3.72802E+00 3.75935E+00 3.78966E+00
          3.81842E+00 3.83286E+00 3.84783E+00 3.86007E+00 3.87140E+00
          3.87268E+00 3.87118E+00 3.87201E+00 3.87574E+00 3.87678E+00
          3.87625E+00 3.87152E+00                                     3.048E+00
 5.00E+03 3.36465E+00 3.41776E+00 3.46874E+00 3.51598E+00 3.55978E+00
          3.63869E+00 3.70504E+00 3.75922E+00 3.80273E+00 3.83886E+00
          3.87200E+00 3.90319E+00 3.93265E+00 3.96056E+00 3.98759E+00
          4.01430E+00 4.04033E+00 4.06507E+00 4.08822E+00 4.11116E+00
          4.13572E+00 4.14896E+00 4.16338E+00 4.17536E+00 4.18544E+00
          4.18701E+00 4.18248E+00 4.18337E+00 4.18926E+00 4.19062E+00
          4.19039E+00 4.18337E+00                                     3.374E+00
 6.00E+03 3.73816E+00 3.78085E+00 3.82243E+00 3.86206E+00 3.90007E+00
          3.97249E+00 4.03878E+00 4.09808E+00 4.14947E+00 4.19219E+00
          4.22568E+00 4.24983E+00 4.26552E+00 4.27475E+00 4.28182E+00
          4.29079E+00 4.30241E+00 4.31743E+00 4.33675E+00 4.36133E+00
          4.39123E+00 4.40614E+00 4.41598E+00 4.41929E+00 4.42947E+00
          4.43337E+00 4.42690E+00 4.42730E+00 4.43405E+00 4.43570E+00
          4.43549E+00 4.42679E+00                                     3.644E+00
 8.00E+03 4.29284E+00 4.34965E+00 4.40360E+00 4.45252E+00 4.49685E+00
          4.57418E+00 4.63480E+00 4.67862E+00 4.70671E+00 4.72169E+00
          4.72745E+00 4.72583E+00 4.71903E+00 4.71101E+00 4.70858E+00
          4.71662E+00 4.73159E+00 4.74292E+00 4.74254E+00 4.74079E+00
          4.75000E+00 4.75857E+00 4.76804E+00 4.77560E+00 4.78174E+00
          4.78111E+00 4.77683E+00 4.77777E+00 4.78313E+00 4.78464E+00
          4.78362E+00 4.77694E+00                                     4.067E+00
 1.00E+04 4.75847E+00 4.81571E+00 4.86948E+00 4.91712E+00 4.95924E+00
          5.02999E+00 5.08101E+00 5.11248E+00 5.12586E+00 5.12443E+00
          5.11295E+00 5.09366E+00 5.06926E+00 5.04451E+00 5.02712E+00
          5.02257E+00 5.02666E+00 5.02700E+00 5.01426E+00 5.00092E+00
          5.00076E+00 5.00466E+00 5.00888E+00 5.01183E+00 5.01440E+00
          5.01407E+00 5.01175E+00 5.01223E+00 5.01506E+00 5.01587E+00
          5.01535E+00 5.01171E+00                                     4.384E+00
 1.50E+04 5.62152E+00 5.68051E+00 5.73372E+00 5.77673E+00 5.81059E+00
          5.85647E+00 5.87206E+00 5.86013E+00 5.82599E+00 5.77862E+00
          5.72908E+00 5.68020E+00 5.63306E+00 5.58863E+00 5.54798E+00
          5.51184E+00 5.47933E+00 5.44754E+00 5.41467E+00 5.38508E+00
          5.36412E+00 5.35639E+00 5.34656E+00 5.33703E+00 5.33208E+00
          5.33187E+00 5.33631E+00 5.33563E+00 5.33075E+00 5.32962E+00
          5.33003E+00 5.33595E+00                                     4.917E+00
 2.00E+04 6.24141E+00 6.30635E+00 6.36011E+00 6.39427E+00 6.41152E+00
          6.41091E+00 6.37374E+00 6.31755E+00 6.24940E+00 6.17633E+00
          6.10618E+00 6.03851E+00 5.96966E+00 5.89860E+00 5.83135E+00
          5.77237E+00 5.72025E+00 5.66987E+00 5.61863E+00 5.57560E+00
          5.54097E+00 5.51928E+00 5.49649E+00 5.47969E+00 5.46771E+00
          5.46653E+00 5.47660E+00 5.47511E+00 5.46425E+00 5.46135E+00
          5.46255E+00 5.47586E+00                                     5.250E+00
 3.00E+04 7.14957E+00 7.16609E+00 7.17506E+00 7.17085E+00 7.15557E+00
          7.10171E+00 7.01647E+00 6.90502E+00 6.77544E+00 6.63953E+00
          6.51024E+00 6.39131E+00 6.28289E+00 6.18396E+00 6.09334E+00
          6.00904E+00 5.93060E+00 5.85623E+00 5.78415E+00 5.71400E+00
          5.64563E+00 5.61172E+00 5.57585E+00 5.54581E+00 5.52115E+00
          5.52203E+00 5.53280E+00 5.53038E+00 5.51538E+00 5.51111E+00
          5.51314E+00 5.53243E+00                                     5.639E+00
 4.00E+04 7.77666E+00 7.76217E+00 7.73978E+00 7.70368E+00 7.65656E+00
          7.54103E+00 7.39719E+00 7.23118E+00 7.05191E+00 6.87183E+00
          6.70420E+00 6.55257E+00 6.41666E+00 6.29425E+00 6.18280E+00
          6.07906E+00 5.98208E+00 5.88945E+00 5.79883E+00 5.70980E+00
          5.62243E+00 5.57916E+00 5.53427E+00 5.49750E+00 5.46591E+00
          5.46441E+00 5.47189E+00 5.46948E+00 5.45606E+00 5.45223E+00
          5.45445E+00 5.47148E+00                                     5.859E+00
 5.00E+04 8.25340E+00 8.20939E+00 8.15746E+00 8.09191E+00 8.01585E+00
          7.84532E+00 7.65053E+00 7.43819E+00 7.21758E+00 7.00112E+00
          6.80220E+00 6.62391E+00 6.46551E+00 6.32382E+00 6.19511E+00
          6.07544E+00 5.96334E+00 5.85600E+00 5.75072E+00 5.64721E+00
          5.54604E+00 5.49666E+00 5.44690E+00 5.40736E+00 5.37137E+00
          5.36632E+00 5.36703E+00 5.36518E+00 5.35705E+00 5.35481E+00
          5.35604E+00 5.36580E+00                                     5.998E+00
 6.00E+04 8.60193E+00 8.57120E+00 8.52236E+00 8.44230E+00 8.33782E+00
          8.09003E+00 7.81425E+00 7.54454E+00 7.29006E+00 7.05623E+00
          6.84856E+00 6.66351E+00 6.49229E+00 6.32872E+00 6.17616E+00
          6.03703E+00 5.90935E+00 5.78872E+00 5.67128E+00 5.55750E+00
          5.44797E+00 5.39469E+00 5.34240E+00 5.30219E+00 5.26297E+00
          5.25346E+00 5.24654E+00 5.24548E+00 5.24410E+00 5.24382E+00
          5.24382E+00 5.24464E+00                                     6.095E+00
 8.00E+04 9.16737E+00 9.10340E+00 9.01758E+00 8.89428E+00 8.74257E+00
